ecg
93
70
103
107
78
71
76
107
89
91
83
87
103
99
83
61
86
102
99
81
73
81
104
104
86
64
82
104
100
80
65
75
99
101
79
63
78
101
99
80
70
81
97
97
83
74
89
101
98
75
75
90
95
96
83
67
80
105
92
72
67
94
98
85
74
59
83
97
92
73
70
92
104
78
70
60
91
96
88
70
52
89
91
84
60
69
91
103
83
66
65
96
96
80
66
64
88
87
79
60
66
96
99
73
60
62
92
94
78
62
62
92
93
69
59
64
92
97
76
59
62
89
91
76
55
64
96
90
71
61
61
98
97
77
62
81
96
70
78
72
76
99
76
74
60
78
95
93
75
64
72
93
92
77
59
75
87
77
68
47
71
97
84
73
54
74
89
89
66
62
74
92
85
69
62
77
98
83
67
60
88
90
89
69
47
81
83
84
68
63
86
90
88
69
66
85
99
79
64
57
91
88
82
65
56
87
94
79
64
56
92
97
72
62
50
90
96
75
59
66
89
92
70
65
55
88
96
76
64
67
91
96
72
61
67
88
83
72
51
67
92
92
66
64
69
92
90
70
56
61
90
83
72
54
71
93
83
68
59
64
90
92
76
51
74
96
80
75
47
74
94
83
71
59
73
93
81
72
68
73
93
92
72
59
78
87
79
73
47
74
95
90
70
68
78
95
78
66
60
77
88
82
66
60
85
94
84
66
60
79
93
83
69
67
87
94
76
60
49
82
92
78
67
58
89
92
73
64
63
91
97
80
67
64
92
82
76
65
66
88
94
79
64
60
90
93
75
56
56
95
85
74
57
67
92
91
71
59
66
88
91
71
60
68
89
84
69
56
60
92
83
71
55
57
92
95
73
60
68
91
91
72
51
66
95
86
70
60
74
88
86
73
55
73
85
79
77
48
73
95
81
67
65
77
95
84
75
64
74
90
79
67
57
86
82
86
65
64
74
96
77
70
70
85
87
78
70
55
82
87
85
62
60
85
87
74
60
62
83
91
74
61
44
92
83
73
62
60
85
88
78
59
62
87
95
72
62
65
92
88
75
61
65
84
80
72
49
58
93
97
73
62
51
93
87
69
57
65
90
81
70
61
65
89
88
68
54
68
91
87
68
52
66
85
88
73
51
69
92
83
68
61
64
95
93
75
51
72
96
85
70
57
70
94
91
68
55
74
94
86
71
62
69
93
87
72
54
76
94
86
64
56
83
92
88
71
60
73
94
81
62
61
90
91
74
72
40
88
94
81
75
52
90
88
88
68
65
93
85
82
62
64
86
91
76
70
67
88
86
78
58
65
92
94
73
63
48
84
95
76
54
56
91
88
68
59
56
91
81
72
53
61
87
88
68
59
63
89
94
67
61
66
91
82
74
49
69
85
88
69
55
62
90
94
70
55
70
92
93
70
50
69
94
91
73
51
70
86
88
69
55
72
94
94
74
61
72
92
86
80
58
72
89
89
64
57
79
93
82
66
61
73
92
91
74
66
82
93
76
62
58
78
94
87
66
62
83
95
81
67
64
76
98
79
66
47
92
87
78
65
53
85
87
79
69
54
84
96
76
63
53
92
94
80
65
51
83
87
75
65
67
91
95
73
58
54
92
86
69
51
55
89
84
73
57
56
87
92
66
60
62
93
98
71
45
68
92
88
73
51
67
89
80
73
50
64
91
95
68
49
72
90
90
75
51
73
90
83
77
54
72
89
86
70
61
78
99
91
77
68
73
97
76
71
58
81
95
88
67
54
80
96
91
70
65
84
85
83
76
58
80
93
86
64
58
90
93
76
67
60
81
91
83
73
64
85
94
76
57
62
88
84
79
64
48
89
89
75
62
54
86
94
78
62
56
93
97
73
64
68
90
85
75
58
62
85
82
70
53
59
91
92
75
63
65
93
96
70
61
68
91
84
69
56
61
94
86
72
58
66
96
85
73
59
68
93
92
72
57
74
95
92
72
53
70
91
80
77
52
70
96
91
71
63
72
90
84
72
59
77
94
87
67
57
85
92
89
69
56
77
93
84
71
55
86
96
88
71
60
78
96
84
64
43
96
95
72
75
61
92
96
78
76
73
90
98
80
68
58
87
98
77
62
61
92
94
75
65
54
90
89
78
59
58
86
91
70
59
57
86
95
75
64
84
99
75
74
68
66
88
86
77
64
69
91
73
69
48
73
94
92
68
64
67
91
79
76
60
72
86
83
70
56
68
96
81
70
52
76
91
90
71
52
69
86
80
74
55
74
94
87
69
59
69
91
92
71
58
73
96
83
68
53
71
89
83
65
55
80
88
81
65
50
71
91
82
72
65
81
94
82
65
62
78
85
81
61
55
85
81
79
61
60
84
92
81
66
61
91
89
75
59
64
89
82
80
68
61
84
86
73
63
59
92
97
77
66
57
93
92
75
58
59
88
89
72
57
64
88
95
69
57
70
90
88
70
58
57
88
90
70
49
69
92
83
69
53
67
93
88
70
60
69
91
95
72
52
73
94
84
71
54
71
89
84
74
56
73
94
93
78
62
72
94
75
68
53
77
92
88
69
67
72
90
92
70
66
80
96
78
70
53
79
91
76
65
51
85
96
78
68
67
76
89
86
66
50
92
91
79
64
50
85
93
82
62
64
84
87
74
65
67
90
92
78
65
57
89
86
75
53
62
90
80
79
63
66
89
95
71
52
68
91
90
75
64
58
85
87
70
56
64
92
90
70
57
63
93
95
70
56
65
90
88
75
56
60
89
88
68
54
68
93
90
73
70
83
99
90
86
71
84
100
75
70
67
78
91
87
73
65
73
96
81
75
59
78
88
78
70
47
74
89
78
65
58
82
94
81
73
66
73
95
86
65
61
91
96
82
63
59
82
94
83
68
52
81
94
75
70
62
87
92
79
62
58
90
91
73
64
58
83
87
75
63
61
90
92
69
53
58
90
82
71
56
61
84
86
71
60
57
84
85
74
58
65
93
94
68
56
63
89
88
70
55
61
88
85
70
51
68
92
93
65
55
62
89
91
74
57
66
93
88
72
51
63
91
89
68
51
75
78
61
70
42
87
98
89
82
67
79
92
89
68
46
75
93
88
70
60
75
94
86
70
64
71
93
86
66
54
79
93
84
55
38
80
88
78
71
56
85
89
82
70
57
92
91
82
64
54
84
87
78
63
56
84
90
82
63
56
87
94
77
44
50
93
87
83
71
71
87
78
76
56
52
93
88
69
61
50
90
89
71
63
64
86
84
68
53
56
88
93
66
62
62
90
88
72
49
55
87
89
68
50
64
90
89
70
49
66
89
88
69
54
63
89
86
71
48
68
90
88
69
52
67
90
88
69
64
80
98
95
78
58
82
89
76
65
62
79
94
83
71
59
74
95
87
70
56
78
95
82
61
53
72
82
85
64
55
84
89
76
60
64
77
89
77
67
62
87
92
73
56
64
84
82
71
64
58
85
90
74
57
49
88
88
79
64
59
89
83
72
56
56
87
87
73
57
56
82
88
67
57
59
88
89
70
57
58
85
88
67
54
49
91
57
74
51
78
93
77
67
65
71
86
83
76
61
61
86
77
71
48
68
93
88
64
58
66
91
94
73
53
71
86
82
68
48
75
91
85
66
56
69
89
75
66
61
75
86
84
67
56
70
89
85
61
48
81
92
74
66
59
74
88
80
65
58
84
90
79
65
60
78
92
77
64
48
89
90
67
61
61
86
89
74
60
60
87
84
72
61
54
86
94
71
57
61
89
79
72
59
63
80
82
70
54
65
88
92
66
51
67
91
92
71
53
60
84
87
70
59
66
89
80
70
49
59
89
92
65
59
65
92
82
66
65
61
87
89
74
47
69
87
87
69
53
71
90
88
67
52
72
96
91
72
61
68
91
91
73
58
72
90
86
61
56
70
91
86
67
57
73
84
74
63
48
74
91
79
70
54
84
88
80
66
58
82
94
82
73
65
82
96
84
63
59
91
90
78
60
51
85
88
77
62
55
82
89
77
66
53
87
94
73
53
61
85
73
76
66
71
84
87
74
53
71
91
97
66
57
50
93
87
70
50
61
85
78
71
56
57
84
82
68
56
56
94
84
67
53
68
91
85
68
61
64
89
85
73
56
71
93
79
71
57
68
91
92
71
64
73
92
82
70
61
69
93
88
66
56
74
92
85
73
57
72
95
79
69
61
75
94
78
64
57
70
94
85
62
59
83
83
79
70
63
76
90
86
68
68
88
83
79
57
56
82
83
79
62
60
83
79
74
60
59
90
87
80
66
56
94
96
77
58
53
87
94
75
66
54
86
92
72
52
63
95
91
77
60
64
93
94
70
62
63
86
80
71
53
55
90
95
66
50
61
91
94
72
61
66
87
88
71
47
69
90
92
70
45
61
93
93
70
60
71
91
82
74
62
74
88
81
74
48
73
88
89
66
60
74
95
91
71
63
73
89
77
71
55
80
90
92
69
54
73
93
86
62
62
81
89
80
70
60
77
95
83
66
55
89
92
79
63
56
82
88
82
65
56
83
93
76
61
49
90
98
84
76
69
95
95
74
55
60
89
95
80
69
71
91
88
73
54
67
90
92
75
60
59
87
90
70
53
61
91
91
73
56
57
93
90
67
56
64
87
88
68
56
59
88
89
69
67
71
103
90
76
59
75
96
96
73
54
70
95
74
71
61
65
93
94
75
61
72
87
89
68
59
70
95
80
67
64
71
87
79
69
65
68
91
90
71
58
76
90
84
60
55
85
88
85
65
57
78
94
82
66
56
87
92
84
64
60
85
90
80
60
53
85
89
82
58
45
88
86
64
66
83
94
96
76
64
68
91
95
77
62
66
87
91
70
62
61
88
93
74
58
59
91
92
69
55
58
87
88
69
55
57
87
91
67
40
72
93
70
72
49
77
94
95
73
56
75
91
96
71
44
60
90
82
70
47
71
88
92
71
51
68
90
91
73
55
71
91
83
74
53
68
90
84
65
54
73
91
82
66
54
70
92
83
68
56
74
93
83
62
58
68
91
84
55
62
87
56
79
84
55
87
101
83
76
74
86
95
77
69
61
89
92
82
65
53
90
93
78
64
54
87
84
79
66
54
81
77
70
56
65
89
91
72
61
55
92
91
70
56
57
83
85
70
58
58
84
90
66
54
59
90
90
66
57
57
90
83
68
40
61
90
63
77
66
77
92
96
71
60
73
90
75
74
58
68
87
86
74
49
70
94
87
68
57
71
95
89
68
50
70
90
87
72
60
74
93
86
70
52
73
93
83
60
54
77
87
82
70
55
70
92
85
58
61
87
91
82
70
52
85
95
84
70
54
85
95
76
64
65
82
95
80
62
50
89
85
74
59
52
88
83
79
65
61
84
90
71
58
65
86
94
74
62
63
88
78
71
51
58
88
84
70
58
60
88
90
63
55
60
91
88
71
56
56
87
84
70
53
64
92
90
69
59
61
93
89
67
58
74
89
65
80
65
78
96
75
77
65
76
97
85
76
49
73
91
84
74
60
72
90
80
65
53
69
88
87
68
56
75
91
83
68
61
81
91
82
68
54
72
89
83
60
50
82
87
83
67
54
78
92
80
63
54
78
88
66
76
63
91
73
72
66
52
86
81
74
68
64
87
96
76
60
53
88
83
72
51
61
83
77
71
58
53
89
92
66
56
60
91
92
71
59
56
85
84
70
54
63
83
85
66
54
58
90
92
66
52
63
89
90
67
56
60
86
86
71
50
69
91
80
69
47
74
90
98
76
53
75
84
90
75
59
71
83
87
67
54
76
93
88
63
62
70
92
88
72
59
71
92
82
62
54
70
90
84
63
53
75
90
81
65
55
69
92
84
66
58
80
90
77
62
50
88
89
75
66
72
87
85
87
61
62
93
100
86
64
53
91
80
74
66
53
87
92
74
69
63
88
90
72
58
56
89
88
68
60
53
84
86
70
56
57
87
91
64
59
56
92
91
68
59
59
83
87
73
53
55
82
83
67
55
60
92
90
74
69
81
100
58
78
52
78
82
87
75
55
79
90
92
67
49
77
95
88
72
51
70
85
91
76
50
71
92
87
63
56
77
90
81
69
60
70
87
84
69
58
80
92
78
66
50
76
88
82
64
54
80
91
76
62
60
74
91
82
61
54
88
89
72
60
52
80
88
78
63
54
84
86
61
38
93
92
75
82
62
64
91
88
79
61
59
86
86
74
60
57
87
91
67
55
58
88
86
71
58
54
85
82
67
53
59
85
88
67
70
54
89
73
71
64
72
93
88
75
59
60
90
87
70
54
66
88
87
69
55
61
87
88
72
51
66
90
84
64
52
64
89
87
68
55
65
85
83
67
71
83
103
71
76
62
79
94
85
69
59
80
92
84
71
56
74
90
81
61
57
87
84
82
64
57
77
88
79
65
56
83
92
71
62
51
84
80
72
70
53
87
86
75
56
63
83
86
76
64
60
91
94
71
56
51
88
87
73
57
55
82
84
68
55
57
85
93
70
48
64
91
93
72
75
68
95
95
75
52
68
87
88
67
53
69
93
92
69
61
58
90
79
72
46
66
94
78
65
55
62
89
90
72
51
67
90
82
66
51
64
89
85
69
53
70
90
86
69
49
78
98
77
74
64
78
84
85
70
69
76
86
90
70
66
78
84
79
62
52
87
90
81
66
60
80
89
79
65
54
85
91
80
60
52
84
89
73
51
78
88
67
73
72
49
86
98
77
62
56
91
93
69
66
49
88
83
73
58
65
84
81
65
66
50
86
82
69
64
58
89
94
71
59
63
86
89
66
59
55
91
85
65
52
68
91
83
68
54
64
83
78
72
57
69
87
93
65
56
69
94
82
75
66
71
94
90
71
51
68
90
88
66
51
72
90
85
71
57
69
89
85
72
57
73
92
84
70
51
75
90
69
70
66
82
78
82
67
63
78
85
88
66
64
88
93
78
66
60
79
91
84
67
57
80
94
75
58
52
81
88
76
62
43
88
90
72
56
57
87
88
76
64
63
88
93
69
58
62
87
91
74
62
60
85
83
72
56
51
88
80
75
58
61
90
86
67
53
61
87
80
73
59
49
87
87
67
57
64
90
92
70
51
63
89
86
68
46
65
91
89
73
52
60
91
83
70
54
66
89
89
67
58
71
89
82
73
59
71
93
82
65
58
75
90
75
65
57
71
86
86
67
63
79
92
78
72
61
75
91
85
64
61
86
93
75
66
66
75
87
79
64
58
88
81
75
56
55
86
82
79
64
48
87
91
76
58
59
85
83
76
62
52
88
88
71
52
67
86
91
73
61
52
90
94
68
52
54
83
89
73
52
62
85
88
65
57
61
93
86
68
53
59
87
88
73
44
68
87
77
67
53
64
91
91
67
61
71
92
90
75
48
61
89
91
72
43
66
93
83
63
50
63
91
87
73
53
73
86
80
63
49
69
86
77
64
60
72
89
85
65
68
80
93
82
68
51
76
83
79
64
59
84
85
87
66
64
78
94
80
60
45
88
83
75
64
52
84
88
77
62
61
87
91
72
63
58
88
82
76
61
47
82
74
70
60
59
83
94
71
55
51
92
82
67
58
58
88
83
73
51
51
85
78
68
56
63
89
91
66
54
61
89
83
72
58
66
86
81
67
56
57
85
90
67
58
72
96
84
70
61
65
88
79
76
56
70
89
90
70
53
67
93
79
68
48
70
93
81
70
57
65
87
77
66
54
74
91
76
60
59
71
92
88
69
64
77
87
80
61
47
70
93
79
62
56
82
86
77
63
52
75
93
77
64
55
85
93
77
61
56
90
90
80
63
52
86
90
73
56
54
89
89
79
62
53
87
93
73
58
66
88
84
79
75
82
92
87
77
69
56
90
91
72
58
69
88
91
70
60
58
89
81
67
56
53
91
94
68
48
62
88
88
76
52
59
85
87
69
49
64
91
86
66
55
66
87
88
72
51
67
89
84
67
52
73
91
87
67
52
64
84
83
61
76
83
102
86
77
70
78
85
82
70
56
78
87
83
74
58
72
86
83
64
52
85
88
76
64
53
77
88
81
62
57
86
91
71
58
57
83
90
78
64
50
85
88
76
57
56
80
89
63
67
64
90
89
76
70
61
86
86
77
67
64
91
83
69
62
56
83
91
73
56
68
85
83
67
58
57
88
81
70
52
62
86
88
73
47
60
88
85
68
54
56
92
88
66
57
59
73
76
73
60
65
85
84
72
50
67
91
84
68
57
66
90
87
70
53
70
89
84
63
54
73
90
86
68
55
71
92
81
64
59
82
87
66
62
34
85
84
90
74
64
84
95
89
73
60
83
96
70
67
57
88
79
75
64
46
81
88
76
62
56
85
91
70
61
52
87
86
72
57
51
82
90
69
67
73
86
95
77
65
73
91
96
68
60
64
87
85
74
63
52
89
82
66
65
68
89
91
68
54
64
82
86
67
54
66
92
85
64
59
62
85
90
72
52
69
83
80
68
51
60
86
82
64
61
67
94
78
71
47
67
89
86
69
49
69
90
84
63
50
66
90
86
68
55
68
89
81
61
52
67
88
81
62
52
74
91
80
61
54
68
90
82
65
64
86
70
63
57
75
88
97
87
75
48
84
95
74
60
64
89
84
76
63
48
81
89
76
62
58
84
86
75
62
47
88
86
69
56
58
84
85
69
58
53
82
86
69
55
56
90
88
65
54
53
90
89
66
56
55
83
83
67
49
57
84
87
63
54
59
84
88
69
41
79
78
81
79
69
80
94
72
69
55
75
94
92
70
55
64
90
81
71
59
73
93
78
70
49
70
93
81
68
53
73
86
85
71
59
70
91
79
65
52
75
93
75
67
49
71
86
85
62
58
87
82
73
65
54
74
88
80
67
52
83
89
78
56
49
83
94
79
62
56
85
76
72
55
59
85
87
77
65
58
88
87
71
60
60
87
91
78
58
61
83
88
69
60
57
91
87
74
61
66
92
83
69
58
61
89
80
70
60
64
91
83
68
58
64
90
90
75
56
59
88
89
71
52
66
92
89
68
60
64
92
94
74
39
72
93
87
72
62
80
96
83
74
66
77
95
88
75
61
78
92
88
73
52
72
92
87
65
62
78
95
87
71
59
75
94
83
65
56
85
83
80
69
51
88
99
91
70
61
93
80
80
73
56
86
95
84
69
65
85
89
78
63
54
87
87
74
58
53
88
87
76
59
57
82
88
76
60
58
88
92
66
57
57
91
91
73
59
59
87
89
69
53
64
91
92
71
59
53
91
81
71
33
86
97
97
74
60
72
89
91
74
68
73
95
76
73
52
69
89
88
71
53
69
91
85
70
56
66
91
87
73
56
70
93
84
68
56
64
95
92
74
74
80
99
87
66
57
73
85
87
70
65
78
88
83
70
56
89
93
85
65
57
85
91
80
67
53
83
91
84
69
60
83
93
78
61
55
89
92
82
64
51
83
87
78
69
90
96
76
78
76
55
91
93
79
67
60
88
93
69
61
61
92
94
73
60
59
87
89
72
54
58
83
88
68
57
61
91
91
68
54
66
91
91
69
54
61
88
86
68
51
69
94
79
69
73
84
77
94
82
62
80
97
81
74
49
72
87
93
74
55
72
96
85
79
53
70
91
85
65
52
74
92
85
68
61
72
92
86
70
58
79
90
82
67
52
74
93
84
67
61
81
95
78
69
46
77
63
74
84
79
92
88
82
66
63
95
92
82
64
65
89
91
76
63
58
84
89
79
65
55
87
94
71
60
60
91
91
75
59
57
85
85
74
57
59
87
90
66
59
59
90
92
64
63
76
83
73
83
57
80
92
92
76
63
72
94
90
71
60
64
91
91
70
60
67
91
90
75
57
69
90
87
74
54
70
92
87
70
57
72
94
87
73
52
85
81
80
73
52
81
94
85
74
49
76
98
87
75
60
81
98
85
72
61
76
89
85
65
60
82
90
79
70
58
74
95
82
66
55
89
92
76
61
53
81
88
78
65
54
81
88
74
61
59
84
87
85
74
49
96
72
77
73
78
89
74
77
65
76
86
94
72
65
62
93
93
73
63
66
90
88
68
55
61
89
87
73
58
58
86
88
68
55
66
89
90
64
58
58
89
88
72
57
64
90
87
70
52
62
89
87
69
51
72
94
86
73
44
84
83
96
83
78
82
90
88
73
67
74
92
81
71
56
78
90
90
70
61
79
92
86
75
63
74
92
85
64
56
89
88
85
62
56
77
86
80
66
55
81
89
82
69
57
82
89
80
57
46
96
88
82
64
73
89
91
79
72
55
83
82
72
63
62
88
94
73
59
58
90
84
74
55
56
86
83
71
62
64
88
88
67
62
66
92
86
72
63
63
89
81
72
58
67
90
89
71
52
59
92
88
71
54
67
91
92
68
55
63
89
91
73
54
67
92
87
72
53
65
94
90
70
58
71
94
75
69
54
69
78
96
78
75
79
100
81
72
65
75
89
88
70
56
78
92
85
67
50
73
94
86
68
59
78
94
80
63
55
91
91
84
62
54
86
90
75
68
51
86
91
75
68
76
89
83
79
66
68
89
87
83
67
62
88
94
76
65
58
92
86
69
63
65
89
83
73
62
60
89
89
70
57
65
88
86
72
58
63
89
86
73
57
52
88
88
66
57
64
94
94
73
55
72
89
89
74
59
68
92
88
74
50
73
93
91
70
53
67
95
90
73
62
71
93
91
78
56
68
92
88
71
54
75
94
85
71
42
85
87
93
77
71
84
96
89
75
58
81
100
91
71
60
87
88
84
67
54
78
90
80
67
57
84
87
79
61
62
81
88
82
66
61
89
90
76
62
50
85
82
74
67
54
86
86
72
58
65
93
93
76
62
52
91
89
72
63
66
87
91
74
63
59
87
89
68
59
58
92
93
73
61
59
89
90
72
57
63
88
91
74
61
59
93
80
67
53
68
92
90
75
63
63
87
88
76
54
70
94
88
68
53
64
92
89
69
58
70
92
90
73
79
84
85
87
81
53
83
86
89
69
71
86
96
77
71
65
76
94
86
72
69
86
89
84
71
67
81
89
85
60
52
84
86
77
68
63
81
92
81
67
56
88
94
74
60
52
89
89
77
62
54
82
86
71
61
57
83
91
75
59
66
94
72
75
76
80
93
73
81
74
71
88
86
72
63
72
93
89
72
65
59
92
86
73
60
63
93
88
72
60
64
89
89
71
54
66
89
90
65
55
62
89
89
73
54
66
94
87
66
51
65
91
88
72
56
69
91
88
69
50
63
74
69
80
75
81
91
78
72
74
81
96
88
71
58
78
90
84
68
64
87
94
86
69
62
79
90
83
65
56
86
92
85
65
59
83
93
80
65
54
87
94
83
65
59
86
95
78
63
58
81
67
77
80
70
93
97
83
59
78
92
93
74
71
55
91
94
76
59
67
89
87
72
63
56
88
81
72
59
57
91
90
68
62
68
92
86
69
61
65
88
92
74
57
68
89
81
72
55
64
94
90
73
56
68
89
87
70
49
68
93
90
72
49
71
92
86
71
59
72
97
80
73
54
76
94
83
74
61
70
87
90
67
63
76
90
79
69
53
72
91
85
71
62
81
97
84
64
51
75
96
79
65
61
87
94
76
67
57
80
94
84
70
64
87
94
72
66
54
93
96
80
62
51
90
87
79
67
59
85
92
80
62
66
89
96
77
64
54
92
86
75
65
66
88
86
73
55
68
89
84
71
67
62
93
98
67
64
61
90
83
74
59
59
88
90
73
52
68
93
91
73
59
66
95
97
72
61
69
93
82
75
60
76
87
93
73
55
71
93
83
71
55
76
94
84
72
59
73
95
90
69
54
77
87
89
71
52
74
94
89
68
57
80
93
82
71
66
75
90
85
64
52
89
85
80
65
52
82
95
82
65
53
82
83
76
59
70
85
98
78
63
58
91
91
75
57
65
82
86
77
63
61
86
85
73
62
57
92
84
74
59
62
87
80
70
62
62
89
92
73
63
67
94
87
68
64
69
91
94
70
60
55
91
88
71
53
61
89
87
72
57
66
96
89
71
60
68
93
87
69
54
67
92
82
75
61
71
93
81
70
63
70
92
82
67
51
72
96
80
69
57
77
88
92
76
67
73
92
78
65
54
87
95
79
65
55
75
91
84
70
64
82
96
80
72
54
79
86
80
64
51
90
90
76
66
56
87
86
79
70
67
89
80
75
66
64
86
86
73
62
58
91
91
73
62
59
91
93
75
59
59
88
84
71
60
58
84
90
72
59
55
93
90
68
61
65
93
93
72
62
64
84
76
72
53
67
94
93
68
65
65
94
84
73
56
68
90
79
71
53
66
91
82
73
59
71
94
88
73
50
70
93
78
70
52
72
93
87
70
52
67
94
82
72
58
74
86
77
64
62
74
91
87
65
57
75
92
83
69
58
72
95
86
72
52
87
98
82
70
65
89
98
86
69
59
87
94
75
62
56
88
92
82
68
52
82
87
79
65
67
87
83
81
67
64
90
94
73
64
65
87
82
70
62
60
85
89
73
60
55
91
90
69
58
52
90
88
69
59
60
88
90
71
56
58
89
89
67
55
62
90
88
72
51
66
87
85
68
52
62
91
88
72
54
71
92
89
67
53
60
92
83
77
82
76
98
87
75
66
74
91
84
73
69
76
87
79
76
60
72
91
85
66
55
77
90
79
63
49
71
90
83
59
57
80
70
81
64
51
76
94
80
68
51
88
89
76
58
55
81
89
81
68
56
85
81
74
62
52
88
82
75
59
59
85
90
71
59
56
87
92
73
56
55
87
89
69
56
55
84
83
73
59
54
81
87
65
52
59
90
88
67
50
84
98
64
75
69
79
90
91
76
66
60
91
83
71
63
65
92
80
74
53
62
82
87
70
46
67
91
81
64
47
71
88
92
70
60
68
87
75
71
62
71
92
79
69
57
67
91
88
66
62
77
86
88
68
55
74
89
84
62
52
87
87
73
67
49
75
89
82
67
55
81
88
75
69
57
80
92
77
61
49
88
90
72
60
54
84
88
75
59
51
81
84
69
56
56
82
90
76
58
56
87
92
69
56
60
86
87
76
77
68
94
91
69
72
59
90
92
73
58
67
86
84
73
59
65
85
89
69
57
66
88
88
66
53
65
91
88
65
56
61
88
88
71
51
66
90
86
68
52
60
87
86
71
53
68
90
82
64
52
65
88
81
66
65
76
93
77
78
75
78
76
68
76
73
75
92
83
66
58
86
91
85
63
56
76
87
79
64
53
82
67
75
67
50
87
85
75
65
60
85
90
82
64
57
82
90
74
60
54
88
91
70
61
52
86
88
71
58
57
85
86
69
56
54
80
87
67
70
67
90
97
68
66
57
94
94
72
65
56
89
86
73
48
66
86
79
68
56
61
85
88
70
51
64
91
86
66
52
60
88
86
69
50
60
91
89
69
49
77
90
75
76
66
76
82
80
76
64
70
85
76
71
58
74
88
77
62
52
67
91
75
67
48
72
80
74
62
53
70
91
85
65
59
77
86
79
68
62
72
91
83
67
67
80
82
77
66
57
88
82
72
61
58
86
88
70
62
57
85
89
71
66
43
86
80
72
62
64
87
89
75
62
60
83
86
71
58
60
87
88
62
58
62
89
89
69
55
55
88
95
70
62
59
87
88
66
51
62
88
88
71
55
59
83
85
70
56
59
84
82
68
41
71
87
79
65
54
68
87
78
71
52
71
92
92
71
57
65
86
76
70
61
69
83
87
72
57
62
92
80
66
53
76
89
83
63
51
70
92
81
65
62
77
85
74
72
58
71
92
75
66
52
84
81
71
62
57
76
85
79
62
61
84
88
72
62
48
82
81
78
67
45
81
77
69
56
62
80
81
72
58
50
89
94
67
53
53
88
92
73
60
64
89
88
69
63
59
89
73
72
63
56
81
83
69
53
62
89
85
66
59
62
92
84
67
52
61
87
87
75
49
64
85
91
71
56
68
94
86
70
58
64
86
74
71
60
69
85
79
64
62
67
89
86
73
63
69
85
76
71
54
73
88
88
67
59
71
89
81
62
59
81
88
81
65
58
73
83
77
64
58
81
83
85
67
62
75
93
78
64
55
87
92
71
62
60
84
79
75
59
51
80
85
71
61
54
77
90
75
60
48
86
92
68
60
51
87
83
73
56
60
81
82
69
56
53
82
87
72
56
50
87
84
63
61
57
90
90
69
61
62
85
87
71
54
61
86
85
66
58
61
88
83
67
55
64
89
78
66
53
62
90
81
69
45
66
89
77
67
56
64
88
86
73
57
67
89
81
65
49
64
88
82
62
51
70
89
80
55
62
69
80
78
77
51
80
82
75
71
48
88
82
89
67
64
80
92
75
64
61
84
85
82
64
54
84
83
79
61
53
82
91
80
66
62
80
86
69
56
56
89
83
65
63
56
86
85
71
56
63
81
75
66
60
64
84
87
69
59
52
89
90
64
57
58
88
88
69
62
63
89
85
71
57
67
88
80
66
59
56
87
77
68
57
68
88
77
66
58
64
87
92
72
60
68
87
78
73
50
64
88
77
66
55
71
80
87
69
48
69
95
83
71
56
71
97
84
73
59
70
84
80
65
55
76
90
82
60
57
70
87
77
66
55
79
96
79
63
60
71
87
84
64
70
82
85
76
62
64
79
84
81
64
57
88
82
74
55
56
85
79
80
60
49
83
90
71
56
52
91
91
75
64
60
89
80
72
53
63
83
89
72
62
54
87
90
70
59
59
91
92
70
60
62
90
81
65
50
63
88
81
71
50
61
86
86
72
48
58
86
89
71
54
59
88
85
67
56
63
90
84
71
67
72
91
94
75
62
67
88
75
66
52
70
93
89
69
58
71
88
80
69
65
72
91
90
68
53
71
92
85
64
60
81
89
79
71
56
75
90
80
64
47
86
91
77
65
55
76
84
75
65
63
83
96
75
56
55
84
84
79
64
48
88
83
71
63
62
83
88
73
58
56
85
82
70
59
55
90
89
73
61
51
90
76
67
53
54
82
89
73
56
64
87
90
68
58
60
94
83
73
61
53
91
84
70
50
66
87
90
74
60
59
87
91
73
48
67
94
83
69
53
64
93
79
71
53
69
90
79
71
52
62
87
85
76
63
69
93
87
66
56
79
94
87
66
51
75
93
81
69
54
79
94
77
71
58
76
88
84
62
47
89
92
83
64
54
79
91
76
71
64
83
93
74
68
66
85
96
77
58
56
89
92
72
62
59
86
92
72
58
55
87
84
73
64
45
82
91
77
65
53
89
87
66
61
60
91
94
68
54
57
86
77
70
53
65
82
89
71
57
55
90
88
68
57
66
92
82
67
59
61
88
88
70
53
66
87
79
69
52
59
90
80
74
55
67
90
81
70
55
65
92
78
66
47
73
92
84
69
58
70
91
87
71
59
73
92
83
63
56
68
91
85
66
57
76
90
81
64
54
74
91
84
65
59
77
91
78
66
67
89
84
90
65
62
93
96
82
75
58
88
69
77
69
50
84
81
76
66
65
89
88
79
61
51
87
90
75
60
59
85
86
68
61
52
86
85
67
69
50
90
77
72
67
53
89
98
70
56
56
90
83
70
58
66
87
80
71
58
64
89
79
69
49
72
88
84
64
58
65
87
81
73
55
67
94
87
70
56
67
91
82
69
52
72
91
81
69
59
70
87
85
69
58
70
86
84
73
56
71
92
88
70
60
78
92
78
62
45
73
85
78
64
53
79
92
74
69
62
73
86
85
66
55
87
84
76
61
61
79
89
78
68
53
84
79
75
57
61
87
82
74
67
59
87
95
72
58
64
92
97
77
61
63
92
94
68
57
59
86
87
75
62
61
84
88
73
55
61
89
78
69
56
61
